Ewe/V	<I>/mA	
-7.5131667E-001	-5.572367226704955E-004
-7.5175303E-001	-6.147305091742175E-004
-7.5495362E-001	-5.957250851216533E-004
-7.5818008E-001	-5.797887542696252E-004
-7.6124853E-001	-6.131059106932180E-004
-7.6424265E-001	-6.551284604938718E-004
-7.6732051E-001	-6.944578808786780E-004
-7.7055317E-001	-6.890017553311220E-004
-7.7334905E-001	-6.827272781281708E-004
-7.7662081E-001	-7.162017715332848E-004
-7.7952123E-001	-7.679788899557548E-004
-7.8249300E-001	-8.200618927308549E-004
-7.8598368E-001	-8.557311694192202E-004
-7.8888804E-001	-8.638243593525538E-004
-7.9196799E-001	-8.826339314439852E-004
-7.9492730E-001	-9.365269534344287E-004
-7.9809588E-001	-1.014662933308888E-003
-8.0112404E-001	-1.088502315237092E-003
-8.0449641E-001	-1.122261887230384E-003
-8.0742466E-001	-1.142834123645398E-003
-8.1057113E-001	-1.194623449537503E-003
-8.1331861E-001	-1.296630046064302E-003
-8.1646472E-001	-1.415095657908491E-003
-8.1973755E-001	-1.489207688678100E-003
-8.2267362E-001	-1.529682496381544E-003
-8.2567877E-001	-1.596602043962643E-003
-8.2906753E-001	-1.712953462093277E-003
-8.3202690E-001	-1.872067032650186E-003
-8.3505362E-001	-1.991237444989170E-003
-8.3794981E-001	-2.082742725878448E-003
-8.4133703E-001	-2.145781590294448E-003
-8.4427238E-001	-2.279842759337822E-003
-8.4762847E-001	-2.459757774723972E-003
-8.6524659E-001	-3.290930001475338E-003
-8.8345432E-001	-4.406468536282245E-003
-8.8640147E-001	-4.560499069547017E-003
-8.8984954E-001	-4.671813966362095E-003
-8.9258862E-001	-4.814139508360835E-003
-8.9563459E-001	-5.003172767269096E-003
-8.9877194E-001	-5.213433814008420E-003
-9.0184230E-001	-5.372298016612029E-003
-9.0504497E-001	-5.488640085786749E-003
-9.0787762E-001	-5.590289071538537E-003
-9.1127676E-001	-5.724555040545115E-003
-9.1417456E-001	-5.892679825527519E-003
-9.1716725E-001	-6.036721549012948E-003
-9.2037123E-001	-6.125854566497391E-003
-9.2340702E-001	-6.175727415666160E-003
-9.2652208E-001	-6.234975798738898E-003
-9.2946470E-001	-6.332249695138417E-003
-9.3282133E-001	-6.439042050195520E-003
-9.3577391E-001	-6.493133184124297E-003
-9.3880826E-001	-6.494378730232175E-003
-9.4207269E-001	-6.489348599923412E-003
-9.4518834E-001	-6.515776668558307E-003
-9.4788533E-001	-6.561393600544974E-003
-9.5107967E-001	-6.581590570086913E-003
-9.5426345E-001	-6.540959559060838E-003
-9.5732605E-001	-6.480269380587683E-003
-9.6044439E-001	-6.440913101219609E-003
-9.6358651E-001	-6.438119052290858E-003
-9.6646398E-001	-6.420661723171048E-003
-9.6950859E-001	-6.366595873844583E-003
-9.7271585E-001	-6.276985616680633E-003
-9.7574967E-001	-6.194258136604592E-003
-9.7876149E-001	-6.157585913245264E-003
-9.8199952E-001	-6.135142221475209E-003
-9.8501617E-001	-6.081981473861145E-003
-9.8831922E-001	-5.988605155555243E-003
-9.9101740E-001	-5.886276538733803E-003
-9.9400342E-001	-5.825032980932780E-003
-9.9742329E-001	-5.801423070287068E-003
-1.0003507E+000	-5.762231595391694E-003
-1.0035434E+000	-5.682060031456501E-003
-1.0065522E+000	-5.572531856549703E-003
-1.0096241E+000	-5.507384127538123E-003
-1.0128102E+000	-5.477494334692384E-003
-1.0158243E+000	-5.460428083292099E-003
-1.0189075E+000	-5.400079806069987E-003
-1.0218588E+000	-5.311411188618623E-003
-1.0250602E+000	-5.236946129506190E-003
-1.0281878E+000	-5.197374946939295E-003
-1.0312105E+000	-5.187588755104244E-003
-1.0343767E+000	-5.153924177228375E-003
-1.0373241E+000	-5.081244419086167E-003
-1.0405138E+000	-5.006176791279612E-003
-1.0436150E+000	-4.960453230199044E-003
-1.0467285E+000	-4.943537112012567E-003
-1.0498130E+000	-4.938300813462006E-003
-1.0528800E+000	-4.890605794571434E-003
-1.0557311E+000	-4.820801314248718E-003
-1.0589924E+000	-4.765591744834263E-003
-1.0620723E+000	-4.754293835698531E-003
-1.0652252E+000	-4.755117047320043E-003
-1.0683174E+000	-4.726507388665729E-003
-1.0711889E+000	-4.668830958735277E-003
-1.0744685E+000	-4.606923018465228E-003
-1.0773380E+000	-4.584738672390051E-003
-1.0804642E+000	-4.589197719399502E-003
-1.0836669E+000	-4.576682957836697E-003
-1.0866257E+000	-4.530491248423064E-003
-1.0897247E+000	-4.471568828746188E-003
-1.0927149E+000	-4.438409624331795E-003
-1.0960429E+000	-4.438909573082114E-003
-1.0990833E+000	-4.443275142031258E-003
-1.1022104E+000	-4.413646551906160E-003
-1.1051009E+000	-4.358664679849827E-003
-1.1081536E+000	-4.312290723451684E-003
-1.1116247E+000	-4.302143444777223E-003
-1.1143954E+000	-4.312379276630695E-003
-1.1174303E+000	-4.302102462913460E-003
-1.1206254E+000	-4.259280047465716E-003
-1.1235249E+000	-4.203440514597111E-003
-1.1267725E+000	-4.182615729730183E-003
-1.1297911E+000	-4.191035558148690E-003
-1.1327798E+000	-4.193875005609823E-003
-1.1360819E+000	-4.170804157313662E-003
-1.1391476E+000	-4.121633572042677E-003
-1.1422133E+000	-4.083649364409740E-003
-1.1452748E+000	-4.087321410582118E-003
-1.1480870E+000	-4.097386865688737E-003
-1.1514232E+000	-4.088726223861666E-003
-1.1543567E+000	-4.052784223923855E-003
-1.1575574E+000	-4.005157529133746E-003
-1.1604915E+000	-3.993986623722115E-003
-1.1637752E+000	-4.001994774301118E-003
-1.1666726E+000	-4.015016367800064E-003
-1.1696470E+000	-3.992777367654653E-003
-1.1731118E+000	-3.944413897150820E-003
-1.1759446E+000	-3.918350703803034E-003
-1.1791334E+000	-3.932933705820159E-003
-1.1821433E+000	-3.946137110233398E-003
-1.1852152E+000	-3.939279787735856E-003
-1.1882739E+000	-3.894895194337417E-003
-1.1914371E+000	-3.857261143918669E-003
-1.1945716E+000	-3.854935298607287E-003
-1.1978056E+000	-3.875225557879147E-003
-1.2005320E+000	-3.882769672795140E-003
-1.2036862E+000	-3.841022558032932E-003
-1.2067021E+000	-3.802633837949541E-003
-1.2097024E+000	-3.787386456614115E-003
-1.2129260E+000	-3.802736041312264E-003
-1.2161800E+000	-3.817540039238204E-003
-1.2191311E+000	-3.805550893373186E-003
-1.2221103E+000	-3.760318353995123E-003
-1.2253320E+000	-3.724219143480575E-003
-1.2284235E+000	-3.734655352023525E-003
-1.2315649E+000	-3.750052854586870E-003
-1.2346925E+000	-3.754520548617231E-003
-1.2377739E+000	-3.718637262831434E-003
-1.2407700E+000	-3.671453752109029E-003
-1.2436346E+000	-3.658075377188657E-003
-1.2466615E+000	-3.685955437796496E-003
-1.2498792E+000	-3.698878934528691E-003
-1.2528726E+000	-3.678327129884043E-003
-1.2560378E+000	-3.630468487829469E-003
-1.2591887E+000	-3.610139412590536E-003
-1.2623919E+000	-3.624550064192308E-003
-1.2653630E+000	-3.648678340726165E-003
-1.2686009E+000	-3.639972475964107E-003
-1.2717669E+000	-3.602936550610808E-003
-1.2746812E+000	-3.566919282548056E-003
-1.2777469E+000	-3.568892661892933E-003
-1.2807682E+000	-3.595033277049103E-003
-1.2839553E+000	-3.603513917044304E-003
-1.2866821E+000	-3.580365653306217E-003
-1.2899646E+000	-3.540253296283227E-003
-1.2930137E+000	-3.535587975485602E-003
-1.2966043E+000	-3.556512541990744E-003
-1.2990223E+000	-3.578720240246490E-003
-1.3005786E+000	-3.572475630789995E-003
-1.2988659E+000	-3.183238087233684E-003
-1.2959732E+000	-3.032767970055889E-003
-1.2926677E+000	-2.961465967830791E-003
-1.2896062E+000	-2.931830794100920E-003
-1.2863517E+000	-2.924198191327124E-003
-1.2833842E+000	-2.893528278588867E-003
-1.2803700E+000	-2.846066389338372E-003
-1.2772298E+000	-2.782695556204230E-003
-1.2742410E+000	-2.756909832182186E-003
-1.2711978E+000	-2.756220860387015E-003
-1.2681996E+000	-2.750577606613139E-003
-1.2650490E+000	-2.720270566617087E-003
-1.2621574E+000	-2.659673546726735E-003
-1.2588766E+000	-2.629774783534738E-003
-1.2557516E+000	-2.626621149699656E-003
-1.2525885E+000	-2.629763268454807E-003
-1.2495168E+000	-2.618497953965116E-003
-1.2463864E+000	-2.569328957601355E-003
-1.2435201E+000	-2.528821328009401E-003
-1.2404321E+000	-2.516781928859154E-003
-1.2371770E+000	-2.521274805530997E-003
-1.2343882E+000	-2.526948063335178E-003
-1.2312500E+000	-2.488777115299205E-003
-1.2282470E+000	-2.441841669224228E-003
-1.2249006E+000	-2.420018905695545E-003
-1.2219841E+000	-2.420410012259049E-003
-1.2188194E+000	-2.437638743860861E-003
-1.2156818E+000	-2.417713424977461E-003
-1.2125916E+000	-2.370436689781330E-003
-1.2094959E+000	-2.334275914141211E-003
-1.2065037E+000	-2.326206789234675E-003
-1.2032629E+000	-2.355283195898804E-003
-1.2000651E+000	-2.348523041096728E-003
-1.1971719E+000	-2.307482929657968E-003
-1.1942192E+000	-2.262366443281797E-003
-1.1910992E+000	-2.244581678236752E-003
-1.1881130E+000	-2.261071914710125E-003
-1.1850563E+000	-2.275208241404205E-003
-1.1819546E+000	-2.245716266608196E-003
-1.1784602E+000	-2.199722019716840E-003
-1.1757102E+000	-2.169766409890275E-003
-1.1724671E+000	-2.177046568301817E-003
-1.1694996E+000	-2.196259129553773E-003
-1.1664872E+000	-2.187048525862725E-003
-1.1633860E+000	-2.150767298043584E-003
-1.1600976E+000	-2.102813162504651E-003
-1.1570587E+000	-2.097538695299868E-003
-1.1542203E+000	-2.117023753515107E-003
-1.1511214E+000	-2.122969394365874E-003
-1.1480108E+000	-2.089355376564786E-003
-1.1448843E+000	-2.041260089056002E-003
-1.1419016E+000	-2.027399070986854E-003
-1.1386999E+000	-2.038745378805676E-003
-1.1356745E+000	-2.056521104058046E-003
-1.1325821E+000	-2.035287240281441E-003
-1.1294333E+000	-1.990734358498354E-003
-1.1262805E+000	-1.962942757892533E-003
-1.1233573E+000	-1.969664358577050E-003
-1.1202821E+000	-1.981751133143916E-003
-1.1168559E+000	-1.981558016869443E-003
-1.1141868E+000	-1.938610193617152E-003
-1.1110126E+000	-1.902866824121489E-003
-1.1078463E+000	-1.889819334711065E-003
-1.1048555E+000	-1.901649358209002E-003
-1.1016058E+000	-1.917378695566185E-003
-1.0987821E+000	-1.887368371886359E-003
-1.0956352E+000	-1.845168504080267E-003
-1.0923959E+000	-1.818769082904383E-003
-1.0893432E+000	-1.823268721328267E-003
-1.0860873E+000	-1.839677876595107E-003
-1.0832704E+000	-1.832731814796963E-003
-1.0801749E+000	-1.790905697764453E-003
-1.0771643E+000	-1.749062760138389E-003
-1.0741034E+000	-1.738740146054494E-003
-1.0710268E+000	-1.756572665954075E-003
-1.0678562E+000	-1.758166512770123E-003
-1.0646976E+000	-1.727688191050004E-003
-1.0616894E+000	-1.685499778220995E-003
-1.0587362E+000	-1.661589760601594E-003
-1.0552444E+000	-1.669609031393647E-003
-1.0526136E+000	-1.682027832121741E-003
-1.0492917E+000	-1.668660348898884E-003
-1.0462991E+000	-1.629876463961667E-003
-1.0432191E+000	-1.595805387621236E-003
-1.0401261E+000	-1.585078152158664E-003
-1.0371776E+000	-1.604918319344513E-003
-1.0339473E+000	-1.599610492243855E-003
-1.0308746E+000	-1.567927774057609E-003
-1.0278939E+000	-1.522431555323625E-003
-1.0248134E+000	-1.498735215964844E-003
-1.0216707E+000	-1.510153679013054E-003
-1.0187088E+000	-1.518996128075184E-003
-1.0153308E+000	-1.496363909836874E-003
-1.0124267E+000	-1.447243183585155E-003
-1.0093604E+000	-1.404257015906297E-003
-1.0063109E+000	-1.409300175331349E-003
-1.0031332E+000	-1.414669551317834E-003
-1.0001885E+000	-1.399766466793802E-003
-9.9727678E-001	-1.349106748453517E-003
-9.9383032E-001	-1.287842437331425E-003
-9.9088442E-001	-1.261513193396367E-003
-9.8791200E-001	-1.264135861202491E-003
-9.8469990E-001	-1.252509544120325E-003
-9.8155200E-001	-1.204341544231673E-003
-9.7852159E-001	-1.125353941517911E-003
-9.7560322E-001	-1.069541904631218E-003
-9.7235274E-001	-1.045659219287766E-003
-9.6930623E-001	-1.038181053599735E-003
-9.6611512E-001	-9.920844957897702E-004
-9.6302289E-001	-8.934818154021466E-004
-9.6002668E-001	-8.021390193724606E-004
-9.5715511E-001	-7.409728562186926E-004
-9.5393425E-001	-7.107416925415649E-004
-9.5068181E-001	-6.551547951159711E-004
-9.4770265E-001	-5.409546912298006E-004
-9.4462472E-001	-4.177917536156064E-004
-9.4168741E-001	-3.093425092620585E-004
-9.3828756E-001	-2.460039417988874E-004
-9.3562263E-001	-1.703722640767427E-004
-9.3218964E-001	-4.718660355286687E-005
-9.2913961E-001	1.119641090733738E-004
-9.2624772E-001	2.576549784167196E-004
-9.2318958E-001	3.747468381780934E-004
-9.2004484E-001	4.714100325153500E-004
-9.1701466E-001	6.124327009575017E-004
-9.1400075E-001	7.886769420792951E-004
-9.1075802E-001	9.983544945358670E-004
-9.0756893E-001	1.159036503858199E-003
-9.0481597E-001	1.283513581646342E-003
-9.0156025E-001	1.430484188923796E-003
-8.9845300E-001	1.610855240171216E-003
-8.9539826E-001	1.841935910691132E-003
-8.9240545E-001	2.046059970049481E-003
-8.8934720E-001	2.195311269409630E-003
-8.8617259E-001	2.319162991300673E-003
-8.8318861E-001	2.497601320880816E-003
-8.8011557E-001	2.725414451106196E-003
-8.7694693E-001	2.949072136613863E-003
-8.7391114E-001	3.117520020980799E-003
-8.7085640E-001	3.249636657074003E-003
-8.6752164E-001	3.389906794122259E-003
-8.6462748E-001	3.582178970331237E-003
-8.6150682E-001	3.792627586920269E-003
-8.5856652E-001	3.954126578849242E-003
-8.5534811E-001	4.068224561478914E-003
-8.5234046E-001	4.159367321465532E-003
-8.4933943E-001	4.280907481993029E-003
-8.4606189E-001	4.431501819908576E-003
-8.4318298E-001	4.575611942040536E-003
-8.3998096E-001	4.649138184991665E-003
-8.3685327E-001	4.692535815885475E-003
-8.3368248E-001	4.739141406179662E-003
-8.3057070E-001	4.823368129304340E-003
-8.2793158E-001	4.921136396075911E-003
-8.2436162E-001	4.950736967267777E-003
-8.2122368E-001	4.930710972270644E-003
-8.1851578E-001	4.900948289384990E-003
-8.1533426E-001	4.900798240214506E-003
-8.1210780E-001	4.935519708656758E-003
-8.0917907E-001	4.916591264580883E-003
-8.0608612E-001	4.851911735970920E-003
-8.0290574E-001	4.765380502354102E-003
-7.9999232E-001	4.698717959107475E-003
-7.9683119E-001	4.677572806615776E-003
-7.9365033E-001	4.641655834250609E-003
-7.9069775E-001	4.561063012780718E-003
-7.8769863E-001	4.442829272368103E-003
-7.8455281E-001	4.331041598496609E-003
-7.8168613E-001	4.273203573088073E-003
-7.7827758E-001	4.228437335801324E-003
-7.7527058E-001	4.150595602563298E-003
-7.7198881E-001	4.035195032884076E-003
-7.6908070E-001	3.899872546851067E-003
-7.6604223E-001	3.826084777626554E-003
-7.6298678E-001	3.782502864201630E-003
-7.5986111E-001	3.728709998313207E-003
-7.5676626E-001	3.629103604278226E-003
-7.5369573E-001	3.511973801745887E-003
-7.5071108E-001	3.425385181052280E-003
-7.4744451E-001	3.375516891862537E-003
-7.4472153E-001	3.342011611818754E-003
-7.4137938E-001	3.269030540545489E-003
-7.3829508E-001	3.167083823947391E-003
-7.3525608E-001	3.077469196796315E-003
-7.3194581E-001	3.025731650983035E-003
-7.2908789E-001	2.995539333824113E-003
-7.2614729E-001	2.962311817485061E-003
-7.2292387E-001	2.878274236406596E-003
-7.2108519E-001	2.839757828041911E-003
-7.2098017E-001	2.782302442938089E-003
-7.2025520E-001	2.584819681942463E-003
-7.2254294E-001	2.309338376270318E-003
-7.2554779E-001	2.165135968198225E-003
-7.2884321E-001	2.114045249673589E-003
-7.3171473E-001	2.055163797178600E-003
-7.3499370E-001	1.947209634360146E-003
-7.3811656E-001	1.857290232010200E-003
-7.4108142E-001	1.789267003827120E-003
-7.4438828E-001	1.763446443614418E-003
-7.4702948E-001	1.732290163837602E-003
-7.5019938E-001	1.658268215643532E-003
-7.5320780E-001	1.568637534189423E-003
-7.5656891E-001	1.496848061221428E-003
-7.5959134E-001	1.457602373242089E-003
-7.6269931E-001	1.439049142829519E-003
-7.6595771E-001	1.383798745726895E-003
-7.6870793E-001	1.303328700958315E-003
-7.7161306E-001	1.214394929932565E-003
-7.7488559E-001	1.153720672537675E-003
-7.7796561E-001	1.130463125751442E-003
-7.8112733E-001	1.086087750983157E-003
-7.8430003E-001	1.002477795436465E-003
-7.8726566E-001	9.047258497853032E-004
-7.9066849E-001	8.160884277767129E-004
-7.9344934E-001	7.726293180212451E-004
-7.9668194E-001	7.323920416817120E-004
-7.9948187E-001	6.474018422945203E-004
-8.0300856E-001	5.379778908368637E-004
-8.0575562E-001	4.149909740403602E-004
-8.0865437E-001	3.446910790257480E-004
-8.1201369E-001	2.910004159823697E-004
-8.1482792E-001	2.053622970643282E-004
-8.1803441E-001	7.827954587660618E-005
-8.2120943E-001	-7.203337155203837E-005
-8.2425863E-001	-1.965764241812650E-004
-8.2750362E-001	-2.839061847786130E-004
-8.3039892E-001	-3.736914736732306E-004
-8.3356577E-001	-5.037840304304639E-004
-8.3655882E-001	-6.853674486819693E-004
-8.3934319E-001	-8.596449003529663E-004
-8.4286398E-001	-9.885943679250851E-004
-8.4587109E-001	-1.092110528653783E-003
-8.4893298E-001	-1.215703067102294E-003
-8.5180891E-001	-1.412328648273484E-003
-8.5505110E-001	-1.625390505312544E-003
-8.5811740E-001	-1.804424582847528E-003
-8.6124921E-001	-1.932116589403317E-003
-8.6445194E-001	-2.068420119992587E-003
-8.6748344E-001	-2.263946615942446E-003
-8.7043190E-001	-2.489441019146648E-003
-8.7370616E-001	-2.704706256508867E-003
-8.7657011E-001	-2.851428850460379E-003
-8.7973762E-001	-2.979094972733243E-003
-8.8274091E-001	-3.153466604869332E-003
-8.8605601E-001	-3.361794681820490E-003
-8.8907129E-001	-3.571368803802343E-003
-8.9183915E-001	-3.736769847039668E-003
-8.9525527E-001	-3.850083446825289E-003
-8.9814639E-001	-3.984664517149981E-003
-9.0117377E-001	-4.151329972890909E-003
-9.0440845E-001	-4.357943882398886E-003
-9.0754092E-001	-4.511801598092863E-003
-9.1044682E-001	-4.599345953325742E-003
-9.1379088E-001	-4.676450132689872E-003
-9.1678840E-001	-4.780518497097680E-003
-9.1999996E-001	-4.931979716794925E-003
-9.2276365E-001	-5.054114944544268E-003
-9.2606574E-001	-5.103037800066733E-003
-9.2918193E-001	-5.109653874699562E-003
-9.3203229E-001	-5.144704942787418E-003
-9.3554914E-001	-5.222119010405916E-003
-9.3816364E-001	-5.299042489176432E-003
-9.4116569E-001	-5.314254309408940E-003
-9.4398767E-001	-5.282549084313352E-003
-9.4751191E-001	-5.244462786062536E-003
-9.5067579E-001	-5.244394603843294E-003
-9.5367390E-001	-5.268681633944103E-003
-9.5707136E-001	-5.258448855993952E-003
-9.5994014E-001	-5.195262428060243E-003
-9.6275032E-001	-5.115899863410198E-003
-9.6609819E-001	-5.056709174888457E-003
-9.6910244E-001	-5.037126231140318E-003
-9.7198647E-001	-5.016850160595471E-003
-9.7503620E-001	-4.949784832271166E-003
-9.7810543E-001	-4.857086881721817E-003
-9.8122203E-001	-4.774747747498101E-003
-9.8433954E-001	-4.736242969199486E-003
-9.8755175E-001	-4.712176081459150E-003
-9.9072105E-001	-4.656543983076387E-003
-9.9367148E-001	-4.570262201631148E-003
-9.9703366E-001	-4.479228883285787E-003
-9.9994242E-001	-4.427011479882413E-003
-1.0028865E+000	-4.400389205504604E-003
-1.0059928E+000	-4.362022879604403E-003
-1.0087436E+000	-4.298005101905547E-003
-1.0122005E+000	-4.211803406860786E-003
-1.0151987E+000	-4.156948520176221E-003
-1.0184430E+000	-4.126349046320952E-003
-1.0214922E+000	-4.112616220254495E-003
-1.0242375E+000	-4.069888992164900E-003
-1.0277156E+000	-3.995014421109652E-003
-1.0305727E+000	-3.934868983118824E-003
-1.0336295E+000	-3.897465656966512E-003
-1.0368493E+000	-3.893321782080794E-003
-1.0397280E+000	-3.875993923949345E-003
-1.0431529E+000	-3.815507248451196E-003
-1.0459758E+000	-3.748158761644457E-003
-1.0491787E+000	-3.712250387532269E-003
-1.0519650E+000	-3.708858043929854E-003
-1.0550021E+000	-3.710388240181470E-003
-1.0584023E+000	-3.674657636533338E-003
-1.0613936E+000	-3.620293780386419E-003
-1.0644482E+000	-3.570002804455991E-003
-1.0676728E+000	-3.558681527692887E-003
-1.0707173E+000	-3.568590473865429E-003
-1.0737005E+000	-3.552433717914021E-003
-1.0768902E+000	-3.509958917870131E-003
-1.0798497E+000	-3.451281026208067E-003
-1.0831273E+000	-3.427795037396209E-003
-1.0861495E+000	-3.433715790541624E-003
-1.0893254E+000	-3.441855271765756E-003
-1.0924197E+000	-3.412147634890041E-003
-1.0951273E+000	-3.356124591811331E-003
-1.0984448E+000	-3.320163701833460E-003
-1.1011834E+000	-3.323635704678696E-003
-1.1049842E+000	-3.335335852723019E-003
-1.1075560E+000	-3.321598432876265E-003
-1.1107514E+000	-3.273426186891658E-003
-1.1137923E+000	-3.228998222052065E-003
-1.1168333E+000	-3.217768498058951E-003
-1.1199821E+000	-3.235444055040455E-003
-1.1231112E+000	-3.237751873354823E-003
-1.1262865E+000	-3.194204937734375E-003
-1.1291609E+000	-3.151163452457698E-003
-1.1321126E+000	-3.132019042530867E-003
-1.1354475E+000	-3.143949068511828E-003
-1.1381384E+000	-3.161351720336832E-003
-1.1413887E+000	-3.137632964773303E-003
-1.1444359E+000	-3.094416962799836E-003
-1.1473750E+000	-3.059998013506107E-003
-1.1507466E+000	-3.066309741663120E-003
-1.1536126E+000	-3.089173751472381E-003
-1.1569122E+000	-3.081107803924302E-003
-1.1599102E+000	-3.047288238674006E-003
-1.1626862E+000	-3.002267071386599E-003
-1.1661370E+000	-2.995148175419418E-003
-1.1692865E+000	-3.019278769475664E-003
-1.1721333E+000	-3.028348234448239E-003
-1.1752522E+000	-3.008060493812081E-003
-1.1784985E+000	-2.966959218968307E-003
-1.1816902E+000	-2.941264270280693E-003
-1.1844534E+000	-2.962573261454188E-003
-1.1877475E+000	-2.977097140431467E-003
-1.1908770E+000	-2.969132595191160E-003
-1.1937519E+000	-2.937644407016431E-003
-1.1969355E+000	-2.898512221528503E-003
-1.2000556E+000	-2.902370654023144E-003
-1.2030678E+000	-2.913323961400663E-003
-1.2060077E+000	-2.927722182156290E-003
-1.2093072E+000	-2.903905360134150E-003
-1.2124144E+000	-2.864184219496156E-003
-1.2152988E+000	-2.850494385419164E-003
-1.2183496E+000	-2.869538327034273E-003
-1.2214922E+000	-2.885804556854055E-003
-1.2247356E+000	-2.876282344556912E-003
-1.2277318E+000	-2.839123770270034E-003
-1.2309715E+000	-2.810132000571948E-003
-1.2338606E+000	-2.821440836389513E-003
-1.2370822E+000	-2.841879477208362E-003
-1.2401663E+000	-2.845417305349790E-003
-1.2430487E+000	-2.813049302988337E-003
-1.2462391E+000	-2.782852389892856E-003
-1.2493429E+000	-2.778921439620219E-003
-1.2525073E+000	-2.802228749260390E-003
-1.2553638E+000	-2.819442795303745E-003
-1.2587136E+000	-2.806257825113803E-003
-1.2617719E+000	-2.774194378194549E-003
-1.2648693E+000	-2.754144314971764E-003
-1.2679448E+000	-2.768842141222208E-003
-1.2709907E+000	-2.795355448045361E-003
-1.2740495E+000	-2.799323119688786E-003
-1.2770212E+000	-2.772209557861061E-003
-1.2803054E+000	-2.744643937113812E-003
-1.2832092E+000	-2.739718488101048E-003
-1.2863020E+000	-2.775353793595059E-003
-1.2892764E+000	-2.797167536657855E-003
-1.2925384E+000	-2.785212582141736E-003
-1.2953798E+000	-2.752871069543080E-003
-1.2985551E+000	-2.745709685021733E-003
-1.3008265E+000	-2.762236632406712E-003
-1.3014562E+000	-2.735370770096779E-003
-1.2989838E+000	-2.403730068359820E-003
-1.2956190E+000	-2.325738797183540E-003
-1.2927072E+000	-2.270219601882675E-003
-1.2896893E+000	-2.204960399808435E-003
-1.2864738E+000	-2.153523054760496E-003
-1.2834939E+000	-2.144403493356806E-003
-1.2805182E+000	-2.157952404699097E-003
-1.2775315E+000	-2.132869055929271E-003
-1.2740998E+000	-2.084375998655165E-003
-1.2710983E+000	-2.033754748124145E-003
-1.2681607E+000	-2.017315924441775E-003
-1.2650074E+000	-2.032783494541938E-003
-1.2619108E+000	-2.031385610475150E-003
-1.2591224E+000	-2.003721669292903E-003
-1.2556479E+000	-1.947736793616574E-003
-1.2526001E+000	-1.922169339520351E-003
-1.2494441E+000	-1.934935908488668E-003
-1.2465088E+000	-1.947261573312577E-003
-1.2434984E+000	-1.934920034938968E-003
-1.2403891E+000	-1.886645346774331E-003
-1.2374583E+000	-1.846414835426913E-003
-1.2342083E+000	-1.850200499732703E-003
-1.2310640E+000	-1.867143909895015E-003
-1.2280018E+000	-1.866882512136472E-003
-1.2250103E+000	-1.831185749015923E-003
-1.2219359E+000	-1.781990113288747E-003
-1.2188684E+000	-1.773261127342410E-003
-1.2157234E+000	-1.793733631286279E-003
-1.2124976E+000	-1.803096696497572E-003
-1.2092792E+000	-1.780912470962900E-003
-1.2063417E+000	-1.734774923777750E-003
-1.2034420E+000	-1.718464502923428E-003
-1.2003044E+000	-1.723008636060640E-003
-1.1973797E+000	-1.740365909995489E-003
-1.1941286E+000	-1.732799041129905E-003
-1.1911018E+000	-1.690986189357443E-003
-1.1881107E+000	-1.657516959207548E-003
-1.1849352E+000	-1.656496676982249E-003
-1.1819975E+000	-1.669765956811325E-003
-1.1787723E+000	-1.678555921980018E-003
-1.1757059E+000	-1.651656028116125E-003
-1.1723981E+000	-1.608623736396676E-003
-1.1695707E+000	-1.594975446648397E-003
-1.1664197E+000	-1.606609921769375E-003
-1.1631299E+000	-1.628830599461895E-003
-1.1605964E+000	-1.611200377965361E-003
-1.1571206E+000	-1.571801999017009E-003
-1.1539888E+000	-1.540284415016552E-003
-1.1511984E+000	-1.544224699354606E-003
-1.1478922E+000	-1.562707514641003E-003
-1.1448871E+000	-1.560961264512375E-003
-1.1417783E+000	-1.535786030689663E-003
-1.1385950E+000	-1.496434306497055E-003
-1.1355966E+000	-1.484779325047775E-003
-1.1323451E+000	-1.501113485476574E-003
-1.1293707E+000	-1.512322722208283E-003
-1.1264038E+000	-1.498347234823644E-003
-1.1232449E+000	-1.465171172363999E-003
-1.1200591E+000	-1.432932744299769E-003
-1.1171849E+000	-1.440422219486343E-003
-1.1138781E+000	-1.454580385809225E-003
-1.1111021E+000	-1.457140095925960E-003
-1.1080678E+000	-1.421195987940597E-003
-1.1048425E+000	-1.383628051874954E-003
-1.1016250E+000	-1.376988893298410E-003
-1.0986893E+000	-1.390207919241350E-003
-1.0957637E+000	-1.403472134632882E-003
-1.0922056E+000	-1.380540274502497E-003
-1.0894346E+000	-1.334307360545087E-003
-1.0862421E+000	-1.314642373959680E-003
-1.0834148E+000	-1.327061217726368E-003
-1.0801133E+000	-1.343180867811844E-003
-1.0770607E+000	-1.334639246319314E-003
-1.0740768E+000	-1.289856837307266E-003
-1.0708359E+000	-1.253350765393542E-003
-1.0679508E+000	-1.250056177176311E-003
-1.0649972E+000	-1.269069858993204E-003
-1.0617323E+000	-1.279338868162734E-003
-1.0587164E+000	-1.243260087676386E-003
-1.0554858E+000	-1.198359539249134E-003
-1.0522784E+000	-1.180631669009405E-003
-1.0492337E+000	-1.197581151647959E-003
-1.0464176E+000	-1.221601151444571E-003
-1.0430671E+000	-1.200651436306550E-003
-1.0400075E+000	-1.150946459030622E-003
-1.0371436E+000	-1.122884707366930E-003
-1.0337955E+000	-1.121545434417522E-003
-1.0309734E+000	-1.146646909497963E-003
-1.0281333E+000	-1.142349711325812E-003
-1.0245539E+000	-1.097001233355446E-003
-1.0215576E+000	-1.056584282496582E-003
-1.0185443E+000	-1.043122471278711E-003
-1.0154392E+000	-1.060688271349719E-003
-1.0124627E+000	-1.069098622297461E-003
-1.0092294E+000	-1.033333627268415E-003
-1.0062927E+000	-9.887944985799944E-004
-1.0032960E+000	-9.524588972453785E-004
-9.9981856E-001	-9.563695211990582E-004
-9.9705535E-001	-9.642091241386999E-004
-9.9385947E-001	-9.408470824285222E-004
-9.9067736E-001	-8.803331214884153E-004
-9.8776084E-001	-8.240187728548471E-004
-9.8478377E-001	-8.057450752484534E-004
-9.8165345E-001	-8.070524375349535E-004
-9.7827357E-001	-7.873464995944730E-004
-9.7539335E-001	-7.251704612047279E-004
-9.7244364E-001	-6.447339417788413E-004
-9.6922648E-001	-5.976398383568593E-004
-9.6619898E-001	-5.829314048071410E-004
-9.6328384E-001	-5.577572282910682E-004
-9.6027410E-001	-4.874459479010176E-004
-9.5686591E-001	-3.841293770130078E-004
-9.5391655E-001	-2.985350377388476E-004
-9.5079762E-001	-2.374321605600467E-004
-9.4767618E-001	-1.977814588047166E-004
-9.4464523E-001	-1.265380085188530E-004
-9.4185257E-001	-9.466152482726682E-007
-9.3846560E-001	1.294987184244135E-004
-9.3553340E-001	2.385443695414684E-004
-9.3222713E-001	3.174569356839850E-004
-9.2926836E-001	3.962717594073899E-004
-9.2627043E-001	5.265381375876965E-004
-9.2308265E-001	7.034139959013648E-004
-9.2022544E-001	8.599022183294197E-004
-9.1673863E-001	9.894745580660523E-004
-9.1395575E-001	1.090462332456357E-003
-9.1070080E-001	1.239879743847130E-003
-9.0761447E-001	1.437871407785816E-003
-9.0470904E-001	1.642211462288811E-003
-9.0129167E-001	1.813747055783611E-003
-8.9855582E-001	1.939483623540836E-003
-8.9546579E-001	2.088652045988338E-003
-8.9227259E-001	2.288204693383832E-003
-8.8926756E-001	2.515549729910822E-003
-8.8624752E-001	2.704351427999956E-003
-8.8315731E-001	2.856306130297512E-003
-8.7986684E-001	2.993472484411959E-003
-8.7699455E-001	3.175580734672862E-003
-8.7406248E-001	3.395331944018053E-003
-8.7059206E-001	3.617427118635028E-003
-8.6777776E-001	3.775497940783423E-003
-8.6453354E-001	3.892227627007881E-003
-8.6138606E-001	4.026661772773624E-003
-8.5856915E-001	4.213137699642711E-003
-8.5529697E-001	4.414710561799692E-003
-8.5244197E-001	4.558536829888132E-003
-8.4932119E-001	4.641776084309435E-003
-8.4606731E-001	4.701194416026885E-003
-8.4337097E-001	4.825594021570262E-003
-8.3998770E-001	4.974244938694014E-003
-8.3696502E-001	5.093983509076291E-003
-8.3371264E-001	5.139882972868631E-003
-8.3078051E-001	5.144582166719518E-003
-8.2767868E-001	5.187916083221871E-003
-8.2448840E-001	5.261599500045129E-003
-8.2123601E-001	5.329311976506060E-003
-8.1840801E-001	5.335002834726779E-003
-8.1542832E-001	5.277560604164542E-003
-8.1227267E-001	5.236704913061538E-003
-8.0907333E-001	5.223469501548353E-003
-8.0596215E-001	5.236440857191035E-003
-8.0287415E-001	5.207735171237671E-003
-7.9989475E-001	5.113159768110834E-003
-7.9691702E-001	5.018690694929058E-003
-7.9385203E-001	4.951835278851444E-003
-7.9061121E-001	4.922411426572848E-003
-7.8758419E-001	4.874079985501552E-003
-7.8460932E-001	4.768806446821004E-003
-7.8144759E-001	4.647756126262600E-003
-7.7813321E-001	4.544449186304145E-003
-7.7524614E-001	4.491538435494102E-003
-7.7225441E-001	4.443806223697229E-003
-7.6909286E-001	4.338387547412462E-003
-7.6622629E-001	4.225165428124442E-003
-7.6281780E-001	4.108596227037464E-003
-7.5983799E-001	4.044985411383099E-003
-7.5673699E-001	4.001340826737138E-003
-7.5376517E-001	3.933327309238996E-003
-7.5058031E-001	3.832221383878023E-003
-7.4730748E-001	3.718332933398683E-003
-7.4451441E-001	3.647034954545752E-003
-7.4132651E-001	3.605225073687744E-003
-7.3816288E-001	3.564063828954606E-003
-7.3511767E-001	3.488593610817214E-003
-7.3209012E-001	3.385241191348812E-003
-7.2892034E-001	3.302854359357552E-003
-7.2591609E-001	3.268418278157006E-003
-7.2303146E-001	3.241842460251304E-003
-7.2097069E-001	3.216165816411376E-003
-7.1981633E-001	3.196844365447760E-003